# Depth(nm)	Force(mN)
3.058e+00	9.076e-03
7.724e+00	5.868e-02
1.538e+01	1.100e-01
2.164e+01	1.612e-01
2.690e+01	2.105e-01
3.218e+01	2.609e-01
3.763e+01	3.110e-01
4.251e+01	3.614e-01
4.827e+01	4.114e-01
5.488e+01	4.632e-01
5.948e+01	5.133e-01
6.367e+01	5.651e-01
6.708e+01	6.143e-01
7.077e+01	6.640e-01
7.427e+01	7.134e-01
7.935e+01	7.637e-01
8.322e+01	8.133e-01
8.617e+01	8.632e-01
8.766e+01	9.138e-01
8.945e+01	9.643e-01
9.421e+01	1.015e+00
9.803e+01	1.066e+00
1.021e+02	1.116e+00
1.049e+02	1.166e+00
1.080e+02	1.217e+00
1.110e+02	1.267e+00
1.132e+02	1.317e+00
1.160e+02	1.366e+00
1.201e+02	1.416e+00
1.225e+02	1.466e+00
1.241e+02	1.516e+00
1.277e+02	1.566e+00
1.308e+02	1.615e+00
1.333e+02	1.666e+00
1.351e+02	1.716e+00
1.371e+02	1.767e+00
1.411e+02	1.817e+00
1.431e+02	1.867e+00
1.454e+02	1.916e+00
1.479e+02	1.967e+00
1.492e+02	2.017e+00
1.506e+02	2.066e+00
1.534e+02	2.117e+00
1.555e+02	2.166e+00
1.583e+02	2.217e+00
1.606e+02	2.267e+00
1.621e+02	2.317e+00
1.649e+02	2.368e+00
1.671e+02	2.417e+00
1.686e+02	2.467e+00
1.715e+02	2.517e+00
1.732e+02	2.567e+00
1.757e+02	2.617e+00
1.779e+02	2.666e+00
1.798e+02	2.716e+00
1.815e+02	2.766e+00
1.835e+02	2.816e+00
1.850e+02	2.867e+00
1.868e+02	2.916e+00
1.892e+02	2.966e+00
1.916e+02	3.016e+00
1.931e+02	3.067e+00
1.952e+02	3.116e+00
1.973e+02	3.167e+00
2.005e+02	3.217e+00
2.021e+02	3.266e+00
2.046e+02	3.316e+00
2.066e+02	3.367e+00
2.086e+02	3.417e+00
2.104e+02	3.466e+00
2.123e+02	3.516e+00
2.161e+02	3.566e+00
2.185e+02	3.616e+00
2.203e+02	3.667e+00
2.219e+02	3.716e+00
2.231e+02	3.767e+00
2.243e+02	3.817e+00
2.254e+02	3.868e+00
2.268e+02	3.917e+00
2.283e+02	3.966e+00
2.304e+02	4.016e+00
2.320e+02	4.066e+00
2.339e+02	4.116e+00
2.358e+02	4.168e+00
2.374e+02	4.218e+00
2.398e+02	4.268e+00
2.418e+02	4.318e+00
2.432e+02	4.368e+00
2.448e+02	4.418e+00
2.468e+02	4.468e+00
2.493e+02	4.519e+00
2.500e+02	4.569e+00
2.513e+02	4.619e+00
2.527e+02	4.668e+00
2.544e+02	4.718e+00
2.557e+02	4.768e+00
2.573e+02	4.818e+00
2.588e+02	4.869e+00
2.607e+02	4.919e+00
2.631e+02	4.970e+00
2.647e+02	5.020e+00
2.661e+02	5.071e+00
2.680e+02	5.123e+00
2.699e+02	5.174e+00
2.716e+02	5.223e+00
2.730e+02	5.274e+00
2.747e+02	5.323e+00
2.758e+02	5.373e+00
2.770e+02	5.423e+00
2.790e+02	5.473e+00
2.808e+02	5.523e+00
2.823e+02	5.573e+00
2.840e+02	5.624e+00
2.855e+02	5.673e+00
2.864e+02	5.723e+00
2.881e+02	5.773e+00
2.892e+02	5.823e+00
2.903e+02	5.874e+00
2.919e+02	5.923e+00
2.932e+02	5.973e+00
2.950e+02	6.023e+00
2.965e+02	6.073e+00
2.979e+02	6.124e+00
2.995e+02	6.174e+00
3.009e+02	6.224e+00
3.021e+02	6.274e+00
3.043e+02	6.324e+00
3.054e+02	6.373e+00
3.073e+02	6.423e+00
3.081e+02	6.473e+00
3.095e+02	6.523e+00
3.109e+02	6.573e+00
3.123e+02	6.623e+00
3.134e+02	6.673e+00
3.152e+02	6.724e+00
3.166e+02	6.774e+00
3.180e+02	6.825e+00
3.187e+02	6.876e+00
3.202e+02	6.926e+00
3.218e+02	6.978e+00
3.227e+02	7.028e+00
3.235e+02	7.079e+00
3.250e+02	7.129e+00
3.266e+02	7.179e+00
3.276e+02	7.230e+00
3.288e+02	7.281e+00
3.307e+02	7.331e+00
3.321e+02	7.382e+00
3.337e+02	7.431e+00
3.346e+02	7.482e+00
3.361e+02	7.531e+00
3.373e+02	7.582e+00
3.384e+02	7.632e+00
3.401e+02	7.683e+00
3.411e+02	7.735e+00
3.422e+02	7.786e+00
3.431e+02	7.836e+00
3.441e+02	7.886e+00
3.451e+02	7.936e+00
3.468e+02	7.987e+00
3.484e+02	8.038e+00
3.496e+02	8.088e+00
3.509e+02	8.138e+00
3.521e+02	8.188e+00
3.535e+02	8.238e+00
3.543e+02	8.288e+00
3.554e+02	8.339e+00
3.567e+02	8.389e+00
3.578e+02	8.439e+00
3.592e+02	8.490e+00
3.601e+02	8.540e+00
3.621e+02	8.591e+00
3.628e+02	8.643e+00
3.640e+02	8.694e+00
3.646e+02	8.745e+00
3.657e+02	8.796e+00
3.670e+02	8.846e+00
3.679e+02	8.896e+00
3.689e+02	8.945e+00
3.700e+02	8.995e+00
3.713e+02	9.047e+00
3.728e+02	9.097e+00
3.734e+02	9.148e+00
3.743e+02	9.198e+00
3.754e+02	9.248e+00
3.763e+02	9.298e+00
3.778e+02	9.350e+00
3.783e+02	9.401e+00
3.793e+02	9.452e+00
3.796e+02	9.502e+00
3.805e+02	9.553e+00
3.815e+02	9.604e+00
3.821e+02	9.655e+00
3.826e+02	9.706e+00
3.834e+02	9.756e+00
3.844e+02	9.807e+00
3.857e+02	9.857e+00
3.857e+02	9.907e+00
3.867e+02	9.958e+00
3.875e+02	1.000e+01
3.928e+02	1.000e+01
3.928e+02	9.900e+00
3.925e+02	9.799e+00
3.925e+02	9.703e+00
3.921e+02	9.606e+00
3.920e+02	9.511e+00
3.918e+02	9.401e+00
3.913e+02	9.304e+00
3.911e+02	9.207e+00
3.913e+02	9.111e+00
3.910e+02	9.012e+00
3.903e+02	8.914e+00
3.905e+02	8.816e+00
3.901e+02	8.719e+00
3.900e+02	8.622e+00
3.892e+02	8.524e+00
3.895e+02	8.428e+00
3.894e+02	8.330e+00
3.891e+02	8.232e+00
3.885e+02	8.135e+00
3.886e+02	8.035e+00
3.885e+02	7.939e+00
3.883e+02	7.840e+00
3.880e+02	7.743e+00
3.876e+02	7.644e+00
3.872e+02	7.547e+00
3.873e+02	7.449e+00
3.873e+02	7.352e+00
3.868e+02	7.254e+00
3.864e+02	7.156e+00
3.864e+02	7.058e+00
3.860e+02	6.961e+00
3.856e+02	6.864e+00
3.854e+02	6.764e+00
3.853e+02	6.667e+00
3.855e+02	6.569e+00
3.850e+02	6.473e+00
3.846e+02	6.375e+00
3.843e+02	6.279e+00
3.845e+02	6.180e+00
3.839e+02	6.083e+00
3.839e+02	5.987e+00
3.835e+02	5.889e+00
3.832e+02	5.793e+00
3.834e+02	5.695e+00
3.826e+02	5.595e+00
3.826e+02	5.495e+00
3.820e+02	5.399e+00
3.822e+02	5.301e+00
3.818e+02	5.203e+00
3.811e+02	5.105e+00
3.812e+02	5.007e+00
3.808e+02	4.910e+00
3.804e+02	4.811e+00
3.800e+02	4.711e+00
3.798e+02	4.614e+00
3.794e+02	4.517e+00
3.794e+02	4.421e+00
3.795e+02	4.323e+00
3.789e+02	4.225e+00
3.783e+02	4.128e+00
3.782e+02	4.031e+00
3.778e+02	3.932e+00
3.776e+02	3.831e+00
3.774e+02	3.734e+00
3.769e+02	3.635e+00
3.769e+02	3.539e+00
3.765e+02	3.440e+00
3.763e+02	3.344e+00
3.757e+02	3.247e+00
3.757e+02	3.149e+00
3.754e+02	3.049e+00
3.749e+02	2.950e+00
3.747e+02	2.852e+00
3.743e+02	2.755e+00
3.739e+02	2.657e+00
3.739e+02	2.560e+00
3.734e+02	2.463e+00
3.729e+02	2.364e+00
3.727e+02	2.266e+00
3.721e+02	2.168e+00
3.715e+02	2.070e+00
3.718e+02	1.973e+00
3.709e+02	1.875e+00
3.710e+02	1.779e+00
3.705e+02	1.680e+00
3.697e+02	1.582e+00
3.696e+02	1.484e+00
3.694e+02	1.384e+00
3.688e+02	1.283e+00
3.684e+02	1.184e+00
3.680e+02	1.084e+00
3.674e+02	9.991e-01
3.676e+02	9.991e-01
3.672e+02	9.006e-01
3.669e+02	8.007e-01
3.664e+02	7.010e-01
3.662e+02	6.039e-01
3.659e+02	5.070e-01
3.652e+02	4.095e-01
3.645e+02	3.117e-01
3.631e+02	2.115e-01
3.613e+02	1.123e-01
3.599e+02	1.246e-02
3.577e+02	0.000e+00
