# Depth(nm)	Force(mN)
3.028e+00	9.091e-03
5.153e+00	3.365e-02
8.732e+00	5.965e-02
1.285e+01	8.555e-02
1.631e+01	1.108e-01
1.938e+01	1.367e-01
2.311e+01	1.622e-01
2.633e+01	1.873e-01
2.919e+01	2.123e-01
3.316e+01	2.375e-01
3.592e+01	2.624e-01
3.817e+01	2.872e-01
4.066e+01	3.122e-01
4.526e+01	3.373e-01
4.846e+01	3.622e-01
5.238e+01	3.872e-01
5.657e+01	4.122e-01
5.930e+01	4.382e-01
6.034e+01	4.629e-01
6.149e+01	4.884e-01
6.409e+01	5.141e-01
6.666e+01	5.400e-01
7.238e+01	5.648e-01
7.512e+01	5.899e-01
7.779e+01	6.152e-01
7.988e+01	6.400e-01
8.201e+01	6.651e-01
8.347e+01	6.900e-01
8.609e+01	7.162e-01
9.014e+01	7.416e-01
9.358e+01	7.668e-01
9.488e+01	7.916e-01
9.493e+01	8.163e-01
9.541e+01	8.413e-01
9.582e+01	8.661e-01
9.624e+01	8.913e-01
9.710e+01	9.161e-01
1.002e+02	9.412e-01
1.026e+02	9.660e-01
1.032e+02	9.911e-01
1.034e+02	1.016e+00
1.052e+02	1.042e+00
1.061e+02	1.067e+00
1.066e+02	1.093e+00
1.075e+02	1.118e+00
1.091e+02	1.143e+00
1.102e+02	1.169e+00
1.112e+02	1.193e+00
1.141e+02	1.218e+00
1.151e+02	1.244e+00
1.162e+02	1.269e+00
1.170e+02	1.294e+00
1.190e+02	1.319e+00
1.191e+02	1.343e+00
1.200e+02	1.369e+00
1.210e+02	1.394e+00
1.234e+02	1.419e+00
1.261e+02	1.444e+00
1.275e+02	1.468e+00
1.307e+02	1.493e+00
1.322e+02	1.519e+00
1.343e+02	1.544e+00
1.359e+02	1.569e+00
1.380e+02	1.594e+00
1.422e+02	1.619e+00
1.444e+02	1.644e+00
1.453e+02	1.668e+00
1.463e+02	1.693e+00
1.468e+02	1.718e+00
1.480e+02	1.744e+00
1.484e+02	1.769e+00
1.492e+02	1.794e+00
1.497e+02	1.819e+00
1.503e+02	1.844e+00
1.511e+02	1.869e+00
1.527e+02	1.894e+00
1.541e+02	1.919e+00
1.554e+02	1.944e+00
1.562e+02	1.969e+00
1.567e+02	1.994e+00
1.575e+02	2.019e+00
1.590e+02	2.044e+00
1.595e+02	2.068e+00
1.599e+02	2.094e+00
1.601e+02	2.119e+00
1.608e+02	2.143e+00
1.618e+02	2.169e+00
1.622e+02	2.193e+00
1.627e+02	2.219e+00
1.640e+02	2.243e+00
1.656e+02	2.268e+00
1.676e+02	2.293e+00
1.696e+02	2.319e+00
1.700e+02	2.344e+00
1.710e+02	2.369e+00
1.711e+02	2.394e+00
1.717e+02	2.419e+00
1.725e+02	2.444e+00
1.735e+02	2.469e+00
1.748e+02	2.494e+00
1.751e+02	2.519e+00
1.762e+02	2.544e+00
1.780e+02	2.570e+00
1.788e+02	2.594e+00
1.795e+02	2.619e+00
1.803e+02	2.644e+00
1.831e+02	2.670e+00
1.846e+02	2.695e+00
1.894e+02	2.720e+00
1.919e+02	2.745e+00
1.924e+02	2.769e+00
1.931e+02	2.794e+00
1.930e+02	2.819e+00
1.940e+02	2.844e+00
1.947e+02	2.869e+00
1.957e+02	2.894e+00
1.975e+02	2.919e+00
1.995e+02	2.944e+00
1.999e+02	2.969e+00
2.002e+02	2.994e+00
2.006e+02	3.019e+00
2.008e+02	3.044e+00
2.011e+02	3.069e+00
2.008e+02	3.094e+00
2.012e+02	3.119e+00
2.014e+02	3.144e+00
2.016e+02	3.169e+00
2.020e+02	3.193e+00
2.021e+02	3.219e+00
2.025e+02	3.243e+00
2.033e+02	3.269e+00
2.047e+02	3.294e+00
2.059e+02	3.319e+00
2.076e+02	3.344e+00
2.084e+02	3.370e+00
2.092e+02	3.395e+00
2.101e+02	3.420e+00
2.107e+02	3.445e+00
2.111e+02	3.469e+00
2.114e+02	3.495e+00
2.129e+02	3.520e+00
2.134e+02	3.545e+00
2.141e+02	3.570e+00
2.154e+02	3.595e+00
2.168e+02	3.621e+00
2.174e+02	3.646e+00
2.185e+02	3.671e+00
2.192e+02	3.697e+00
2.200e+02	3.722e+00
2.211e+02	3.748e+00
2.222e+02	3.773e+00
2.223e+02	3.798e+00
2.231e+02	3.824e+00
2.240e+02	3.849e+00
2.243e+02	3.874e+00
2.248e+02	3.899e+00
2.255e+02	3.923e+00
2.262e+02	3.949e+00
2.264e+02	3.974e+00
2.269e+02	3.999e+00
2.273e+02	4.024e+00
2.278e+02	4.049e+00
2.287e+02	4.074e+00
2.290e+02	4.099e+00
2.296e+02	4.125e+00
2.306e+02	4.150e+00
2.309e+02	4.176e+00
2.318e+02	4.201e+00
2.323e+02	4.226e+00
2.330e+02	4.251e+00
2.330e+02	4.276e+00
2.337e+02	4.301e+00
2.343e+02	4.326e+00
2.350e+02	4.351e+00
2.355e+02	4.376e+00
2.360e+02	4.402e+00
2.364e+02	4.427e+00
2.370e+02	4.453e+00
2.376e+02	4.478e+00
2.386e+02	4.503e+00
2.386e+02	4.529e+00
2.396e+02	4.554e+00
2.401e+02	4.579e+00
2.403e+02	4.604e+00
2.413e+02	4.629e+00
2.418e+02	4.654e+00
2.426e+02	4.679e+00
2.432e+02	4.705e+00
2.437e+02	4.730e+00
2.442e+02	4.757e+00
2.443e+02	4.782e+00
2.445e+02	4.808e+00
2.454e+02	4.833e+00
2.461e+02	4.858e+00
2.468e+02	4.884e+00
2.473e+02	4.909e+00
2.475e+02	4.934e+00
2.480e+02	4.959e+00
2.484e+02	4.985e+00
2.487e+02	5.000e+00
2.532e+02	5.000e+00
2.527e+02	4.950e+00
2.526e+02	4.901e+00
2.526e+02	4.852e+00
2.527e+02	4.803e+00
2.522e+02	4.754e+00
2.523e+02	4.700e+00
2.522e+02	4.652e+00
2.522e+02	4.603e+00
2.516e+02	4.554e+00
2.512e+02	4.505e+00
2.510e+02	4.456e+00
2.512e+02	4.407e+00
2.509e+02	4.358e+00
2.503e+02	4.309e+00
2.500e+02	4.260e+00
2.504e+02	4.211e+00
2.505e+02	4.163e+00
2.501e+02	4.113e+00
2.500e+02	4.065e+00
2.499e+02	4.016e+00
2.496e+02	3.967e+00
2.495e+02	3.918e+00
2.491e+02	3.868e+00
2.491e+02	3.820e+00
2.491e+02	3.770e+00
2.487e+02	3.722e+00
2.484e+02	3.673e+00
2.483e+02	3.624e+00
2.482e+02	3.576e+00
2.478e+02	3.527e+00
2.481e+02	3.478e+00
2.478e+02	3.429e+00
2.479e+02	3.380e+00
2.476e+02	3.331e+00
2.472e+02	3.283e+00
2.471e+02	3.234e+00
2.468e+02	3.186e+00
2.469e+02	3.137e+00
2.469e+02	3.088e+00
2.465e+02	3.039e+00
2.460e+02	2.990e+00
2.463e+02	2.942e+00
2.460e+02	2.893e+00
2.460e+02	2.845e+00
2.459e+02	2.796e+00
2.453e+02	2.747e+00
2.452e+02	2.698e+00
2.449e+02	2.650e+00
2.447e+02	2.600e+00
2.445e+02	2.551e+00
2.446e+02	2.502e+00
2.442e+02	2.453e+00
2.441e+02	2.404e+00
2.437e+02	2.355e+00
2.434e+02	2.307e+00
2.437e+02	2.258e+00
2.435e+02	2.208e+00
2.431e+02	2.160e+00
2.428e+02	2.111e+00
2.425e+02	2.062e+00
2.418e+02	2.013e+00
2.421e+02	1.964e+00
2.418e+02	1.915e+00
2.416e+02	1.867e+00
2.417e+02	1.819e+00
2.416e+02	1.770e+00
2.412e+02	1.721e+00
2.414e+02	1.673e+00
2.408e+02	1.624e+00
2.407e+02	1.575e+00
2.403e+02	1.526e+00
2.400e+02	1.477e+00
2.399e+02	1.428e+00
2.399e+02	1.379e+00
2.395e+02	1.330e+00
2.393e+02	1.282e+00
2.388e+02	1.233e+00
2.389e+02	1.184e+00
2.385e+02	1.135e+00
2.382e+02	1.087e+00
2.379e+02	1.038e+00
2.371e+02	9.894e-01
2.373e+02	9.404e-01
2.370e+02	8.905e-01
2.362e+02	8.416e-01
2.362e+02	7.923e-01
2.360e+02	7.442e-01
2.358e+02	6.946e-01
2.354e+02	6.454e-01
2.351e+02	5.954e-01
2.349e+02	5.462e-01
2.346e+02	4.991e-01
2.340e+02	4.991e-01
2.342e+02	4.445e-01
2.337e+02	3.948e-01
2.334e+02	3.460e-01
2.330e+02	2.969e-01
2.327e+02	2.485e-01
2.326e+02	1.993e-01
2.315e+02	1.506e-01
2.308e+02	1.017e-01
2.286e+02	5.264e-02
2.276e+02	4.266e-03
2.268e+02	0.000e+00
