# Depth(nm)	Force(mN)
9.165e+00	5.462e-03
1.130e+01	3.037e-02
1.574e+01	5.616e-02
2.014e+01	8.255e-02
2.349e+01	1.074e-01
2.632e+01	1.333e-01
2.912e+01	1.581e-01
3.219e+01	1.830e-01
3.495e+01	2.081e-01
3.821e+01	2.328e-01
4.125e+01	2.579e-01
4.419e+01	2.829e-01
4.705e+01	3.081e-01
5.027e+01	3.328e-01
5.331e+01	3.575e-01
5.555e+01	3.826e-01
5.824e+01	4.074e-01
6.224e+01	4.333e-01
6.448e+01	4.580e-01
6.637e+01	4.833e-01
6.800e+01	5.087e-01
6.904e+01	5.350e-01
7.099e+01	5.600e-01
7.342e+01	5.851e-01
7.552e+01	6.112e-01
7.657e+01	6.363e-01
7.733e+01	6.612e-01
8.107e+01	6.862e-01
8.407e+01	7.112e-01
8.551e+01	7.362e-01
8.687e+01	7.613e-01
8.757e+01	7.863e-01
8.904e+01	8.114e-01
9.173e+01	8.366e-01
9.356e+01	8.616e-01
9.679e+01	8.864e-01
9.936e+01	9.113e-01
1.000e+02	9.364e-01
1.004e+02	9.616e-01
1.015e+02	9.865e-01
1.028e+02	1.011e+00
1.062e+02	1.037e+00
1.071e+02	1.062e+00
1.083e+02	1.087e+00
1.096e+02	1.112e+00
1.110e+02	1.137e+00
1.133e+02	1.162e+00
1.150e+02	1.187e+00
1.167e+02	1.212e+00
1.190e+02	1.237e+00
1.208e+02	1.261e+00
1.218e+02	1.286e+00
1.235e+02	1.311e+00
1.263e+02	1.337e+00
1.288e+02	1.362e+00
1.293e+02	1.386e+00
1.300e+02	1.411e+00
1.305e+02	1.436e+00
1.309e+02	1.461e+00
1.320e+02	1.486e+00
1.327e+02	1.511e+00
1.347e+02	1.537e+00
1.357e+02	1.562e+00
1.375e+02	1.587e+00
1.401e+02	1.612e+00
1.423e+02	1.637e+00
1.433e+02	1.663e+00
1.443e+02	1.688e+00
1.448e+02	1.713e+00
1.454e+02	1.738e+00
1.460e+02	1.763e+00
1.480e+02	1.788e+00
1.510e+02	1.813e+00
1.532e+02	1.839e+00
1.546e+02	1.864e+00
1.550e+02	1.890e+00
1.559e+02	1.915e+00
1.572e+02	1.940e+00
1.581e+02	1.965e+00
1.587e+02	1.990e+00
1.597e+02	2.015e+00
1.600e+02	2.040e+00
1.607e+02	2.065e+00
1.623e+02	2.090e+00
1.645e+02	2.115e+00
1.654e+02	2.140e+00
1.663e+02	2.165e+00
1.667e+02	2.191e+00
1.684e+02	2.216e+00
1.699e+02	2.242e+00
1.714e+02	2.267e+00
1.725e+02	2.292e+00
1.739e+02	2.317e+00
1.751e+02	2.343e+00
1.763e+02	2.368e+00
1.774e+02	2.394e+00
1.782e+02	2.419e+00
1.791e+02	2.444e+00
1.800e+02	2.469e+00
1.811e+02	2.494e+00
1.829e+02	2.519e+00
1.836e+02	2.544e+00
1.843e+02	2.569e+00
1.857e+02	2.594e+00
1.874e+02	2.619e+00
1.883e+02	2.644e+00
1.890e+02	2.669e+00
1.908e+02	2.694e+00
1.922e+02	2.719e+00
1.935e+02	2.744e+00
1.949e+02	2.769e+00
1.952e+02	2.794e+00
1.962e+02	2.819e+00
1.983e+02	2.845e+00
1.998e+02	2.870e+00
2.007e+02	2.895e+00
2.014e+02	2.920e+00
2.021e+02	2.945e+00
2.029e+02	2.970e+00
2.030e+02	2.995e+00
2.042e+02	3.019e+00
2.055e+02	3.045e+00
2.066e+02	3.070e+00
2.082e+02	3.095e+00
2.099e+02	3.121e+00
2.104e+02	3.145e+00
2.123e+02	3.171e+00
2.138e+02	3.197e+00
2.143e+02	3.221e+00
2.151e+02	3.247e+00
2.157e+02	3.272e+00
2.159e+02	3.297e+00
2.163e+02	3.322e+00
2.179e+02	3.347e+00
2.193e+02	3.372e+00
2.201e+02	3.397e+00
2.208e+02	3.422e+00
2.216e+02	3.447e+00
2.220e+02	3.472e+00
2.226e+02	3.498e+00
2.228e+02	3.523e+00
2.236e+02	3.548e+00
2.240e+02	3.573e+00
2.250e+02	3.599e+00
2.253e+02	3.624e+00
2.262e+02	3.649e+00
2.270e+02	3.674e+00
2.282e+02	3.700e+00
2.293e+02	3.725e+00
2.309e+02	3.751e+00
2.321e+02	3.776e+00
2.328e+02	3.801e+00
2.336e+02	3.826e+00
2.347e+02	3.851e+00
2.355e+02	3.876e+00
2.361e+02	3.901e+00
2.372e+02	3.926e+00
2.375e+02	3.951e+00
2.379e+02	3.976e+00
2.384e+02	4.001e+00
2.395e+02	4.026e+00
2.399e+02	4.051e+00
2.407e+02	4.077e+00
2.412e+02	4.101e+00
2.423e+02	4.127e+00
2.424e+02	4.153e+00
2.432e+02	4.178e+00
2.439e+02	4.203e+00
2.446e+02	4.228e+00
2.448e+02	4.253e+00
2.458e+02	4.279e+00
2.465e+02	4.304e+00
2.469e+02	4.329e+00
2.476e+02	4.354e+00
2.480e+02	4.380e+00
2.488e+02	4.406e+00
2.492e+02	4.431e+00
2.499e+02	4.457e+00
2.504e+02	4.482e+00
2.508e+02	4.507e+00
2.518e+02	4.532e+00
2.524e+02	4.557e+00
2.530e+02	4.582e+00
2.538e+02	4.608e+00
2.539e+02	4.633e+00
2.545e+02	4.659e+00
2.551e+02	4.684e+00
2.552e+02	4.709e+00
2.558e+02	4.735e+00
2.566e+02	4.761e+00
2.569e+02	4.786e+00
2.577e+02	4.811e+00
2.586e+02	4.836e+00
2.590e+02	4.862e+00
2.595e+02	4.887e+00
2.600e+02	4.912e+00
2.607e+02	4.937e+00
2.611e+02	4.962e+00
2.621e+02	4.987e+00
2.624e+02	5.000e+00
2.672e+02	5.000e+00
2.667e+02	4.950e+00
2.668e+02	4.902e+00
2.666e+02	4.853e+00
2.665e+02	4.803e+00
2.663e+02	4.755e+00
2.660e+02	4.706e+00
2.662e+02	4.657e+00
2.663e+02	4.608e+00
2.661e+02	4.559e+00
2.662e+02	4.510e+00
2.659e+02	4.462e+00
2.657e+02	4.413e+00
2.654e+02	4.364e+00
2.652e+02	4.315e+00
2.648e+02	4.265e+00
2.645e+02	4.215e+00
2.648e+02	4.166e+00
2.640e+02	4.118e+00
2.638e+02	4.069e+00
2.641e+02	4.020e+00
2.638e+02	3.970e+00
2.637e+02	3.922e+00
2.638e+02	3.873e+00
2.635e+02	3.824e+00
2.632e+02	3.774e+00
2.632e+02	3.725e+00
2.630e+02	3.676e+00
2.628e+02	3.627e+00
2.626e+02	3.578e+00
2.625e+02	3.529e+00
2.623e+02	3.480e+00
2.624e+02	3.431e+00
2.620e+02	3.382e+00
2.620e+02	3.334e+00
2.616e+02	3.285e+00
2.617e+02	3.236e+00
2.612e+02	3.187e+00
2.612e+02	3.138e+00
2.608e+02	3.089e+00
2.607e+02	3.040e+00
2.603e+02	2.990e+00
2.600e+02	2.942e+00
2.599e+02	2.893e+00
2.595e+02	2.844e+00
2.598e+02	2.795e+00
2.597e+02	2.746e+00
2.588e+02	2.698e+00
2.591e+02	2.648e+00
2.590e+02	2.599e+00
2.589e+02	2.550e+00
2.585e+02	2.501e+00
2.583e+02	2.453e+00
2.583e+02	2.404e+00
2.578e+02	2.356e+00
2.578e+02	2.307e+00
2.576e+02	2.259e+00
2.575e+02	2.210e+00
2.574e+02	2.162e+00
2.573e+02	2.113e+00
2.567e+02	2.064e+00
2.568e+02	2.015e+00
2.564e+02	1.966e+00
2.562e+02	1.917e+00
2.558e+02	1.869e+00
2.558e+02	1.820e+00
2.555e+02	1.771e+00
2.554e+02	1.723e+00
2.552e+02	1.674e+00
2.550e+02	1.625e+00
2.547e+02	1.576e+00
2.543e+02	1.527e+00
2.544e+02	1.479e+00
2.539e+02	1.430e+00
2.536e+02	1.382e+00
2.535e+02	1.333e+00
2.535e+02	1.284e+00
2.529e+02	1.235e+00
2.528e+02	1.186e+00
2.526e+02	1.138e+00
2.520e+02	1.088e+00
2.520e+02	1.039e+00
2.519e+02	9.908e-01
2.513e+02	9.415e-01
2.511e+02	8.928e-01
2.507e+02	8.438e-01
2.506e+02	7.943e-01
2.501e+02	7.459e-01
2.501e+02	6.973e-01
2.495e+02	6.478e-01
2.494e+02	5.992e-01
2.488e+02	5.500e-01
2.479e+02	5.012e-01
2.488e+02	4.995e-01
2.466e+02	4.995e-01
2.462e+02	4.515e-01
2.460e+02	4.032e-01
2.456e+02	3.540e-01
2.445e+02	3.050e-01
2.453e+02	2.542e-01
2.446e+02	2.058e-01
2.439e+02	1.562e-01
2.432e+02	1.065e-01
2.431e+02	5.670e-02
2.407e+02	7.713e-03
2.398e+02	0.000e+00
