# Depth(nm)	Force(mN)
1.928e+00	9.086e-03
3.768e+00	3.389e-02
5.812e+00	6.031e-02
7.304e+00	8.626e-02
1.081e+01	1.091e-01
1.606e+01	1.376e-01
2.203e+01	1.626e-01
2.545e+01	1.875e-01
2.868e+01	2.129e-01
3.308e+01	2.376e-01
3.591e+01	2.626e-01
3.905e+01	2.876e-01
4.168e+01	3.125e-01
4.415e+01	3.376e-01
4.729e+01	3.625e-01
4.945e+01	3.875e-01
5.311e+01	4.126e-01
5.625e+01	4.388e-01
5.880e+01	4.638e-01
6.160e+01	4.893e-01
6.464e+01	5.146e-01
6.814e+01	5.402e-01
7.162e+01	5.656e-01
7.464e+01	5.904e-01
7.747e+01	6.161e-01
8.035e+01	6.412e-01
8.250e+01	6.664e-01
8.364e+01	6.916e-01
8.534e+01	7.172e-01
8.753e+01	7.420e-01
8.827e+01	7.670e-01
9.022e+01	7.920e-01
9.147e+01	8.166e-01
9.153e+01	8.417e-01
9.263e+01	8.665e-01
9.486e+01	8.917e-01
9.553e+01	9.165e-01
9.651e+01	9.415e-01
1.000e+02	9.665e-01
1.017e+02	9.916e-01
1.020e+02	1.017e+00
1.027e+02	1.043e+00
1.033e+02	1.069e+00
1.039e+02	1.094e+00
1.042e+02	1.119e+00
1.049e+02	1.144e+00
1.054e+02	1.169e+00
1.076e+02	1.194e+00
1.094e+02	1.219e+00
1.129e+02	1.245e+00
1.149e+02	1.270e+00
1.157e+02	1.295e+00
1.174e+02	1.320e+00
1.188e+02	1.345e+00
1.191e+02	1.370e+00
1.209e+02	1.395e+00
1.221e+02	1.420e+00
1.229e+02	1.446e+00
1.242e+02	1.470e+00
1.248e+02	1.495e+00
1.266e+02	1.520e+00
1.281e+02	1.545e+00
1.292e+02	1.570e+00
1.314e+02	1.596e+00
1.318e+02	1.621e+00
1.320e+02	1.646e+00
1.324e+02	1.672e+00
1.341e+02	1.696e+00
1.351e+02	1.721e+00
1.386e+02	1.747e+00
1.402e+02	1.772e+00
1.413e+02	1.797e+00
1.426e+02	1.821e+00
1.429e+02	1.847e+00
1.437e+02	1.872e+00
1.459e+02	1.897e+00
1.502e+02	1.922e+00
1.516e+02	1.946e+00
1.545e+02	1.972e+00
1.555e+02	1.996e+00
1.561e+02	2.021e+00
1.571e+02	2.047e+00
1.575e+02	2.071e+00
1.594e+02	2.097e+00
1.608e+02	2.123e+00
1.621e+02	2.148e+00
1.626e+02	2.173e+00
1.628e+02	2.198e+00
1.631e+02	2.223e+00
1.638e+02	2.248e+00
1.642e+02	2.273e+00
1.661e+02	2.298e+00
1.666e+02	2.323e+00
1.676e+02	2.348e+00
1.700e+02	2.373e+00
1.727e+02	2.399e+00
1.739e+02	2.424e+00
1.753e+02	2.449e+00
1.763e+02	2.474e+00
1.761e+02	2.499e+00
1.765e+02	2.524e+00
1.767e+02	2.549e+00
1.780e+02	2.574e+00
1.796e+02	2.599e+00
1.801e+02	2.624e+00
1.803e+02	2.649e+00
1.806e+02	2.674e+00
1.811e+02	2.699e+00
1.816e+02	2.724e+00
1.825e+02	2.749e+00
1.836e+02	2.774e+00
1.842e+02	2.799e+00
1.845e+02	2.824e+00
1.849e+02	2.849e+00
1.858e+02	2.874e+00
1.857e+02	2.900e+00
1.879e+02	2.925e+00
1.887e+02	2.950e+00
1.895e+02	2.975e+00
1.901e+02	3.000e+00
1.906e+02	3.025e+00
1.920e+02	3.050e+00
1.929e+02	3.075e+00
1.941e+02	3.100e+00
1.947e+02	3.126e+00
1.950e+02	3.150e+00
1.960e+02	3.175e+00
1.969e+02	3.200e+00
1.977e+02	3.225e+00
1.987e+02	3.250e+00
1.998e+02	3.275e+00
2.003e+02	3.300e+00
2.007e+02	3.325e+00
2.018e+02	3.350e+00
2.026e+02	3.375e+00
2.035e+02	3.400e+00
2.036e+02	3.425e+00
2.044e+02	3.450e+00
2.047e+02	3.476e+00
2.055e+02	3.501e+00
2.067e+02	3.526e+00
2.081e+02	3.551e+00
2.088e+02	3.577e+00
2.095e+02	3.602e+00
2.097e+02	3.628e+00
2.100e+02	3.653e+00
2.100e+02	3.679e+00
2.106e+02	3.704e+00
2.109e+02	3.730e+00
2.113e+02	3.755e+00
2.113e+02	3.780e+00
2.114e+02	3.806e+00
2.122e+02	3.831e+00
2.127e+02	3.856e+00
2.134e+02	3.881e+00
2.137e+02	3.906e+00
2.142e+02	3.932e+00
2.142e+02	3.957e+00
2.146e+02	3.982e+00
2.148e+02	4.007e+00
2.147e+02	4.032e+00
2.149e+02	4.057e+00
2.152e+02	4.083e+00
2.159e+02	4.108e+00
2.164e+02	4.134e+00
2.168e+02	4.159e+00
2.171e+02	4.184e+00
2.174e+02	4.209e+00
2.178e+02	4.235e+00
2.183e+02	4.260e+00
2.186e+02	4.286e+00
2.189e+02	4.311e+00
2.193e+02	4.337e+00
2.194e+02	4.362e+00
2.203e+02	4.387e+00
2.204e+02	4.412e+00
2.209e+02	4.437e+00
2.211e+02	4.462e+00
2.214e+02	4.488e+00
2.221e+02	4.513e+00
2.226e+02	4.538e+00
2.230e+02	4.564e+00
2.235e+02	4.589e+00
2.239e+02	4.614e+00
2.243e+02	4.639e+00
2.245e+02	4.665e+00
2.251e+02	4.690e+00
2.253e+02	4.715e+00
2.263e+02	4.740e+00
2.265e+02	4.765e+00
2.266e+02	4.790e+00
2.270e+02	4.816e+00
2.275e+02	4.841e+00
2.280e+02	4.867e+00
2.287e+02	4.892e+00
2.287e+02	4.917e+00
2.294e+02	4.942e+00
2.301e+02	4.968e+00
2.305e+02	4.994e+00
2.313e+02	5.000e+00
2.349e+02	5.000e+00
2.352e+02	4.950e+00
2.351e+02	4.899e+00
2.348e+02	4.848e+00
2.347e+02	4.800e+00
2.344e+02	4.755e+00
2.346e+02	4.700e+00
2.344e+02	4.652e+00
2.344e+02	4.602e+00
2.341e+02	4.553e+00
2.341e+02	4.505e+00
2.339e+02	4.455e+00
2.337e+02	4.407e+00
2.336e+02	4.358e+00
2.333e+02	4.310e+00
2.333e+02	4.262e+00
2.331e+02	4.212e+00
2.329e+02	4.164e+00
2.328e+02	4.115e+00
2.327e+02	4.066e+00
2.325e+02	4.016e+00
2.321e+02	3.968e+00
2.326e+02	3.920e+00
2.322e+02	3.872e+00
2.321e+02	3.824e+00
2.317e+02	3.774e+00
2.313e+02	3.725e+00
2.312e+02	3.676e+00
2.309e+02	3.627e+00
2.309e+02	3.578e+00
2.307e+02	3.530e+00
2.307e+02	3.480e+00
2.303e+02	3.430e+00
2.302e+02	3.382e+00
2.303e+02	3.332e+00
2.299e+02	3.284e+00
2.298e+02	3.234e+00
2.298e+02	3.184e+00
2.294e+02	3.135e+00
2.295e+02	3.086e+00
2.290e+02	3.037e+00
2.294e+02	2.988e+00
2.294e+02	2.939e+00
2.287e+02	2.890e+00
2.287e+02	2.841e+00
2.284e+02	2.792e+00
2.285e+02	2.743e+00
2.284e+02	2.694e+00
2.277e+02	2.645e+00
2.279e+02	2.597e+00
2.276e+02	2.547e+00
2.275e+02	2.499e+00
2.273e+02	2.450e+00
2.273e+02	2.401e+00
2.269e+02	2.352e+00
2.269e+02	2.302e+00
2.269e+02	2.252e+00
2.266e+02	2.204e+00
2.263e+02	2.154e+00
2.261e+02	2.105e+00
2.257e+02	2.056e+00
2.255e+02	2.007e+00
2.257e+02	1.958e+00
2.254e+02	1.909e+00
2.252e+02	1.860e+00
2.253e+02	1.811e+00
2.246e+02	1.762e+00
2.246e+02	1.714e+00
2.245e+02	1.665e+00
2.238e+02	1.617e+00
2.239e+02	1.568e+00
2.238e+02	1.519e+00
2.236e+02	1.469e+00
2.231e+02	1.420e+00
2.229e+02	1.371e+00
2.220e+02	1.322e+00
2.225e+02	1.274e+00
2.221e+02	1.226e+00
2.220e+02	1.177e+00
2.218e+02	1.128e+00
2.216e+02	1.080e+00
2.215e+02	1.030e+00
2.214e+02	9.816e-01
2.208e+02	9.331e-01
2.207e+02	8.845e-01
2.205e+02	8.355e-01
2.203e+02	7.873e-01
2.198e+02	7.383e-01
2.193e+02	6.897e-01
2.189e+02	6.410e-01
2.185e+02	5.919e-01
2.182e+02	5.431e-01
2.181e+02	4.991e-01
2.147e+02	4.991e-01
2.143e+02	4.504e-01
2.133e+02	4.009e-01
2.138e+02	3.526e-01
2.141e+02	3.042e-01
2.134e+02	2.540e-01
2.125e+02	2.045e-01
2.122e+02	1.552e-01
2.119e+02	1.065e-01
2.109e+02	5.638e-02
2.100e+02	7.170e-03
2.096e+02	0.000e+00
